135107,140699,13715,-0.168,-0.956,-0.117,-0.61,0.305,0.366,173.773
135110,140743,10972,-0.166,-0.957,-0.117,-0.61,0.305,0.366,173.777
135110,140700,13715,-0.166,-0.958,-0.117,-0.122,0.183,0.549,173.783
135106,140743,10972,-0.168,-0.957,-0.113,-0.122,0.183,0.549,173.787
135106,140699,13719,-0.167,-0.955,-0.114,0.061,0.061,0.61,173.793
135127,140743,10972,-0.168,-0.957,-0.115,0.061,0.061,0.61,173.797
135127,140721,13729,-0.166,-0.955,-0.113,0.122,0,0.671,173.803
135121,140743,10972,-0.166,-0.955,-0.113,0.122,0,0.671,173.806
135121,140716,13714,-0.167,-0.949,-0.113,0.061,-0.061,0.732,173.813
135117,140743,10972,-0.167,-0.949,-0.113,0.061,-0.061,0.732,173.816
135117,140722,13726,-0.17,-0.952,-0.112,0.061,-0.122,0.671,173.823
135110,140743,10972,-0.17,-0.952,-0.112,0.061,-0.122,0.671,173.826
135110,140731,13720,-0.172,-0.951,-0.11,0,-0.061,0.61,173.832
135116,140743,10972,-0.172,-0.951,-0.11,0,-0.061,0.61,173.836
135116,140713,13735,-0.17,-0.952,-0.111,-0.122,0.061,0.488,173.842
135117,140743,10972,-0.17,-0.952,-0.111,-0.122,0.061,0.488,173.846
135117,140717,13731,-0.171,-0.955,-0.11,0.061,0,0.366,173.852
135132,140743,10972,-0.171,-0.955,-0.11,0.061,0,0.366,173.856
135132,140729,13737,-0.172,-0.951,-0.11,0.122,0.122,0.305,173.862
135130,140743,10972,-0.172,-0.951,-0.11,0.122,0.122,0.305,173.866
135130,140716,13738,-0.173,-0.954,-0.11,0,0.244,0.305,173.872
135128,140743,10972,-0.173,-0.954,-0.11,0,0.244,0.305,173.876
135128,140708,13720,-0.167,-0.955,-0.111,-0.061,0.244,0.305,173.882
135136,140743,10972,-0.167,-0.955,-0.111,-0.061,0.244,0.305,173.886
135136,140710,13743,-0.167,-0.954,-0.108,-0.122,0.366,0.366,173.892
135128,140743,10972,-0.167,-0.954,-0.108,-0.122,0.366,0.366,173.896
135128,140714,13739,-0.167,-0.953,-0.108,-0.305,0.488,0.488,173.902
135140,140743,10972,-0.167,-0.953,-0.108,-0.305,0.488,0.488,173.905
135140,140711,13742,-0.172,-0.95,-0.107,-0.366,0.61,0.61,173.912
135134,140743,10972,-0.172,-0.95,-0.107,-0.366,0.61,0.61,173.915
135134,140713,13739,-0.175,-0.952,-0.109,-0.427,0.488,0.61,173.922
135131,140743,10972,-0.175,-0.952,-0.109,-0.427,0.488,0.61,173.925
135131,140709,13730,-0.171,-0.951,-0.107,-0.427,0.427,0.61,173.931
135141,140743,10972,-0.171,-0.951,-0.107,-0.427,0.427,0.61,173.935
135141,140743,13734,-0.172,-0.952,-0.112,-0.549,0.732,0.732,173.941
135156,140743,10972,-0.172,-0.952,-0.112,-0.549,0.732,0.732,173.945
135156,140740,13732,-0.172,-0.951,-0.112,-0.61,0.854,0.671,173.951
135134,140743,10972,-0.172,-0.951,-0.112,-0.61,0.854,0.671,173.955
135134,140742,13729,-0.175,-0.954,-0.115,-0.61,0.854,0.671,173.961
135142,140743,10972,-0.171,-0.956,-0.116,-0.61,0.732,0.549,173.965
135142,140727,13736,-0.173,-0.953,-0.116,-0.61,0.732,0.549,173.971
135139,140743,10972,-0.173,-0.952,-0.115,-0.488,0.671,0.61,173.975
135139,140708,13726,-0.173,-0.951,-0.113,-0.488,0.671,0.61,173.981
135132,140743,10972,-0.168,-0.952,-0.111,-0.488,0.671,0.671,173.985
135132,140721,13749,-0.171,-0.955,-0.114,-0.488,0.671,0.671,173.991
135129,140743,10972,-0.169,-0.956,-0.115,-0.671,0.61,0.671,173.995
135129,140703,13744,-0.173,-0.952,-0.114,-0.671,0.61,0.671,174.001
135131,140743,10972,-0.171,-0.952,-0.116,-0.61,0.366,0.793,174.004
135131,140705,13731,-0.169,-0.952,-0.117,-0.61,0.366,0.793,174.011
135149,140743,10972,-0.171,-0.952,-0.115,-0.305,0.183,0.732,174.014
135149,140719,13720,-0.171,-0.953,-0.114,-0.305,0.183,0.732,174.021
135147,140743,10972,-0.17,-0.956,-0.116,-0.183,0.183,0.671,174.024
135147,140718,13719,-0.17,-0.954,-0.115,-0.183,0.183,0.671,174.03
135138,140743,10972,-0.171,-0.955,-0.114,0,-0.061,0.671,174.034
135138,140721,13723,-0.172,-0.954,-0.114,0,-0.061,0.671,174.04
135122,140743,10972,-0.173,-0.954,-0.113,-0.122,-0.061,0.61,174.044
135122,140718,13722,-0.172,-0.953,-0.114,-0.122,-0.061,0.61,174.05
135120,140743,10972,-0.173,-0.949,-0.113,-0.122,0,0.549,174.054
135120,140718,13721,-0.171,-0.954,-0.113,-0.122,0,0.549,174.06
135124,140743,10972,-0.171,-0.953,-0.113,-0.061,0,0.488,174.064
135124,140729,13723,-0.17,-0.956,-0.116,-0.061,0,0.488,174.07
135114,140743,10972,-0.17,-0.956,-0.112,-0.061,0.122,0.366,174.074
135114,140728,13734,-0.168,-0.955,-0.114,-0.061,0.122,0.366,174.08
135129,140743,10972,-0.17,-0.954,-0.112,0,0.244,0.305,174.084
135129,140733,13719,-0.169,-0.954,-0.112,0,0.244,0.305,174.09
135102,140743,10972,-0.168,-0.955,-0.112,0.244,0.244,0.305,174.094
135102,140735,13732,-0.172,-0.952,-0.105,0.244,0.244,0.305,174.1
135114,140743,10972,-0.171,-0.953,-0.108,0.183,0.183,0.366,174.103
135114,140723,13723,-0.167,-0.953,-0.108,0.183,0.183,0.366,174.11
135118,140743,10972,-0.171,-0.949,-0.109,0.122,0.427,0.488,174.113
135118,140692,13722,-0.173,-0.951,-0.106,0.122,0.427,0.488,174.12
135106,140743,10972,-0.176,-0.954,-0.11,-0.122,0.488,0.61,174.123
135106,140707,13725,-0.174,-0.953,-0.111,-0.122,0.488,0.61,174.129
135124,140743,10972,-0.17,-0.948,-0.108,-0.305,0.549,0.549,174.133
135124,140708,13732,-0.173,-0.952,-0.11,-0.305,0.549,0.549,174.139
135090,140743,10972,-0.175,-0.952,-0.109,-0.427,0.732,0.549,174.143
135090,140712,13734,-0.172,-0.949,-0.11,-0.427,0.732,0.549,174.149
135123,140743,10972,-0.175,-0.952,-0.112,-0.183,0.671,0.671,174.153
135123,140708,13722,-0.173,-0.953,-0.113,-0.183,0.671,0.671,174.159
135117,140743,10972,-0.172,-0.95,-0.113,-0.366,0.549,0.488,174.163
135117,140721,13724,-0.171,-0.95,-0.114,-0.366,0.549,0.488,174.169
135125,140743,10972,-0.173,-0.949,-0.113,-0.366,0.488,0.488,174.173
135125,140709,13722,-0.174,-0.951,-0.112,-0.366,0.488,0.488,174.179
135134,140743,10972,-0.175,-0.951,-0.114,-0.183,0.549,0.427,174.183
135134,140720,13718,-0.172,-0.951,-0.116,-0.183,0.549,0.427,174.189
135139,140743,10972,-0.174,-0.951,-0.112,-0.061,0.488,0.366,174.193
135139,140724,13726,-0.175,-0.952,-0.113,-0.061,0.488,0.366,174.199
135148,140743,10972,-0.172,-0.956,-0.119,-0.061,0.366,0.305,174.202
135148,140733,13735,-0.171,-0.954,-0.115,-0.061,0.366,0.305,174.209
135131,140743,10972,-0.171,-0.958,-0.116,0.183,0.366,0.305,174.212
135131,140732,13736,-0.173,-0.957,-0.115,0.183,0.366,0.305,174.219
135149,140743,10972,-0.169,-0.956,-0.118,0.183,0.427,0.305,174.222
135149,140757,13722,-0.167,-0.957,-0.114,0.183,0.427,0.305,174.228
135131,140743,10972,-0.172,-0.955,-0.115,0.122,0.488,0.305,174.232
135131,140753,13737,-0.171,-0.955,-0.113,0.122,0.488,0.305,174.238
135136,140743,10972,-0.171,-0.955,-0.112,0.244,0.488,0.366,174.242
135136,140732,13748,-0.168,-0.958,-0.111,0.244,0.488,0.366,174.248
135137,140743,10972,-0.17,-0.956,-0.112,0.244,0.61,0.427,174.252
135137,140740,13739,-0.17,-0.957,-0.115,0.244,0.61,0.427,174.258
135149,140743,10972,-0.167,-0.955,-0.113,0.244,0.549,0.427,174.262
135149,140739,13747,-0.17,-0.951,-0.11,0.244,0.549,0.427,174.268
135133,140743,10972,-0.171,-0.948,-0.111,0.366,0.366,0.488,174.272
135133,140740,13747,-0.173,-0.949,-0.113,0.366,0.366,0.488,174.278
135141,140743,10972,-0.178,-0.946,-0.11,0.244,0.427,0.549,174.282
135141,140721,13764,-0.178,-0.948,-0.11,0.244,0.427,0.549,174.288
135146,140743,10972,-0.175,-0.951,-0.108,0.244,0.244,0.488,174.292
135146,140761,13755,-0.174,-0.948,-0.105,0.244,0.244,0.488,174.298
135143,140743,10972,-0.173,-0.951,-0.108,0.427,0.061,0.366,174.301
135143,140747,13743,-0.174,-0.951,-0.113,0.427,0.061,0.366,174.308
135157,140743,10972,-0.174,-0.953,-0.113,0.305,0.366,0.427,174.311
135157,140728,13742,-0.171,-0.951,-0.113,0.305,0.366,0.427,174.318
135163,140743,10972,-0.17,-0.953,-0.116,0.061,0.427,0.305,174.321
135163,140751,13742,-0.166,-0.957,-0.12,0.061,0.427,0.305,174.327
135160,140743,10972,-0.17,-0.958,-0.119,0.122,0.366,0.183,174.331
135160,140753,13739,-0.169,-0.957,-0.118,0.122,0.366,0.183,174.337
135168,140743,10972,-0.168,-0.961,-0.118,0.305,0.305,0.183,174.341
135168,140742,13747,-0.167,-0.958,-0.113,0.305,0.305,0.183,174.347
135166,140743,10972,-0.169,-0.956,-0.114,0.549,0.366,0.244,174.351
135166,140732,13746,-0.171,-0.959,-0.114,0.549,0.366,0.244,174.357
135151,140743,10972,-0.174,-0.954,-0.111,0.549,0.366,0.366,174.361
135151,140743,13746,-0.175,-0.957,-0.11,0.549,0.366,0.366,174.367
135143,140743,10972,-0.174,-0.951,-0.112,0.61,0.183,0.488,174.371
135143,140745,13744,-0.176,-0.948,-0.114,0.61,0.183,0.488,174.377
135175,140743,10972,-0.177,-0.952,-0.113,0.671,0.122,0.488,174.381
135175,140742,13735,-0.176,-0.949,-0.112,0.671,0.122,0.488,174.387
135135,140743,10972,-0.178,-0.948,-0.112,0.549,0.061,0.488,174.391
135135,140769,13737,-0.177,-0.95,-0.112,0.549,0.061,0.488,174.397
135176,140743,10972,-0.175,-0.951,-0.109,0.427,-0.183,0.427,174.401
135176,140756,13754,-0.174,-0.95,-0.107,0.427,-0.183,0.427,174.407
135151,140743,10972,-0.174,-0.95,-0.107,0.427,-0.183,0.427,174.41
135151,140767,13753,-0.173,-0.952,-0.11,0.366,-0.244,0.244,174.417
135159,140743,10972,-0.173,-0.952,-0.11,0.366,-0.244,0.244,174.42
135159,140759,13762,-0.17,-0.949,-0.108,0.122,-0.366,0.061,174.426
135154,140743,10972,-0.17,-0.949,-0.108,0.122,-0.366,0.061,174.43
135154,140747,13756,-0.17,-0.954,-0.11,-0.061,-0.305,0.061,174.436
135179,140743,10972,-0.17,-0.954,-0.11,-0.061,-0.305,0.061,174.44
135179,140737,13736,-0.169,-0.954,-0.106,-0.183,-0.305,0,174.446
135157,140743,10972,-0.169,-0.954,-0.106,-0.183,-0.305,0,174.45
135157,140752,13750,-0.169,-0.955,-0.11,0.122,-0.305,0,174.456
135176,140743,10972,-0.169,-0.955,-0.11,0.122,-0.305,0,174.46
135176,140763,13751,-0.168,-0.953,-0.108,0.488,-0.305,0.061,174.466
135172,140743,10972,-0.168,-0.953,-0.108,0.488,-0.305,0.061,174.47
135172,140760,13741,-0.169,-0.956,-0.105,0.549,-0.305,0,174.476
135160,140743,10972,-0.169,-0.956,-0.105,0.549,-0.305,0,174.48
135160,140769,13750,-0.17,-0.956,-0.109,0.488,-0.183,0.183,174.486
135171,140743,10972,-0.17,-0.956,-0.109,0.488,-0.183,0.183,174.49
135171,140747,13747,-0.171,-0.954,-0.102,0.488,-0.061,0.366,174.496
135173,140743,10972,-0.171,-0.954,-0.102,0.488,-0.061,0.366,174.5
135173,140755,13753,-0.171,-0.951,-0.105,0.427,-0.061,0.305,174.506
135164,140743,10972,-0.171,-0.951,-0.105,0.427,-0.061,0.305,174.509
135164,140768,13742,-0.172,-0.951,-0.108,0.183,0.122,0.427,174.516
135176,140743,10972,-0.172,-0.951,-0.108,0.183,0.122,0.427,174.519
135176,140761,13762,-0.175,-0.954,-0.11,-0.122,0.244,0.244,174.525
135188,140743,10972,-0.175,-0.954,-0.11,-0.122,0.244,0.244,174.529
135188,140748,13772,-0.173,-0.954,-0.11,-0.122,0.244,0.183,174.535
135177,140743,10972,-0.173,-0.954,-0.11,-0.122,0.244,0.183,174.539
135177,140751,13746,-0.171,-0.954,-0.11,0.366,0.244,0.122,174.545
135169,140743,10972,-0.171,-0.954,-0.11,0.366,0.244,0.122,174.549
135169,140755,13749,-0.172,-0.955,-0.111,0.549,0.366,0.183,174.555
135158,140743,10972,-0.173,-0.956,-0.111,0.549,0.366,0.183,174.559
135158,140774,13768,-0.17,-0.956,-0.108,0.488,0.427,0.183,174.565
135169,140743,10972,-0.17,-0.958,-0.105,0.488,0.427,0.183,174.569
135169,140778,13760,-0.168,-0.954,-0.107,0.183,0.671,0.183,174.575
135163,140743,10972,-0.17,-0.955,-0.109,0.183,0.671,0.183,174.579
135163,140754,13765,-0.168,-0.959,-0.108,0,0.732,0.305,174.585
135156,140743,10972,-0.169,-0.958,-0.112,0,0.732,0.305,174.589
135156,140759,13775,-0.169,-0.959,-0.111,0,0.732,0.427,174.595
135162,140743,10972,-0.172,-0.958,-0.11,0,0.732,0.427,174.599
135162,140747,13761,-0.172,-0.956,-0.106,0.061,0.671,0.732,174.605
135152,140743,10972,-0.173,-0.958,-0.109,0.061,0.671,0.732,174.608
135152,140769,13742,-0.172,-0.955,-0.107,0.244,0.61,0.793,174.615
135166,140743,10972,-0.172,-0.954,-0.107,0.244,0.61,0.793,174.618
135166,140748,13766,-0.174,-0.954,-0.11,0.244,0.671,0.854,174.624
135146,140743,10972,-0.174,-0.954,-0.108,0.244,0.671,0.854,174.628
135146,140719,13758,-0.174,-0.95,-0.107,0.244,0.671,0.976,174.634
135152,140743,10972,-0.172,-0.95,-0.107,0.244,0.671,0.976,174.638
135152,140748,13764,-0.173,-0.95,-0.106,0.061,0.732,0.854,174.644
135154,140743,10972,-0.176,-0.95,-0.106,0.061,0.732,0.854,174.648
135154,140740,13771,-0.174,-0.951,-0.107,0.122,0.732,0.732,174.654
135153,140743,10972,-0.175,-0.949,-0.106,0.122,0.732,0.732,174.658
135153,140759,13761,-0.174,-0.951,-0.105,0.061,0.732,0.61,174.664
135142,140743,10972,-0.175,-0.948,-0.105,0.061,0.732,0.61,174.668
135142,140744,13763,-0.174,-0.952,-0.103,-0.122,0.793,0.427,174.674
135113,140743,10972,-0.172,-0.952,-0.103,-0.122,0.793,0.427,174.678
135113,140709,13745,-0.172,-0.951,-0.106,-0.305,0.793,0.427,174.684
135144,140743,10972,-0.172,-0.952,-0.11,-0.305,0.793,0.427,174.688
135144,140723,13749,-0.172,-0.954,-0.113,-0.366,0.793,0.427,174.694
135124,140743,10972,-0.173,-0.954,-0.11,-0.366,0.793,0.427,174.698
135124,140732,13756,-0.176,-0.954,-0.112,-0.427,0.732,0.366,174.704
135127,140743,10972,-0.173,-0.955,-0.114,-0.427,0.732,0.366,174.707
135127,140724,13748,-0.175,-0.958,-0.116,-0.427,0.61,0.427,174.714
135099,140743,10972,-0.174,-0.953,-0.113,-0.427,0.61,0.427,174.717
135099,140708,13741,-0.175,-0.954,-0.117,-0.183,0.549,0.366,174.724
135118,140743,10972,-0.172,-0.953,-0.117,-0.183,0.549,0.366,174.727
135118,140716,13743,-0.171,-0.952,-0.114,0.061,0.488,0.305,174.733
135107,140743,10972,-0.172,-0.952,-0.115,0.061,0.488,0.305,174.737
135107,140697,13747,-0.172,-0.954,-0.111,0.427,0.244,0.244,174.743
135114,140743,10972,-0.171,-0.955,-0.109,0.427,0.244,0.244,174.747
135114,140705,13741,-0.174,-0.954,-0.111,0.671,0.122,0.244,174.753
135097,140743,10972,-0.172,-0.953,-0.112,0.671,0.122,0.244,174.757
135097,140716,13737,-0.175,-0.951,-0.107,0.732,0.122,0.244,174.763
135090,140743,10972,-0.173,-0.948,-0.108,0.732,0.122,0.244,174.767
135090,140710,13742,-0.173,-0.951,-0.108,0.61,-0.061,0.244,174.773
135111,140743,10972,-0.175,-0.95,-0.107,0.61,-0.061,0.244,174.777
135111,140708,13738,-0.174,-0.95,-0.108,0.549,-0.244,0.061,174.783
135100,140743,10972,-0.176,-0.948,-0.104,0.549,-0.244,0.061,174.787
135100,140716,13730,-0.174,-0.95,-0.106,0.549,-0.366,-0.061,174.793
135102,140743,10972,-0.172,-0.95,-0.108,0.549,-0.366,-0.061,174.797
135102,140700,13741,-0.176,-0.951,-0.106,0.427,-0.122,-0.122,174.803
135095,140743,10972,-0.173,-0.949,-0.105,0.427,-0.122,-0.122,174.806
135095,140695,13732,-0.171,-0.95,-0.107,0.305,0.061,-0.305,174.813
135090,140743,10972,-0.171,-0.953,-0.105,0.305,0.061,-0.305,174.816
135090,140696,13728,-0.172,-0.956,-0.105,0.244,0.061,-0.366,174.823
135099,140743,10972,-0.172,-0.958,-0.105,0.244,0.061,-0.366,174.826
135099,140708,13742,-0.168,-0.958,-0.104,0.427,0.122,-0.305,174.832
135108,140743,10972,-0.171,-0.955,-0.104,0.427,0.122,-0.305,174.836
135108,140719,13736,-0.169,-0.954,-0.102,0.122,0.244,-0.122,174.842
135095,140743,10972,-0.17,-0.954,-0.103,0.122,0.244,-0.122,174.846
135095,140706,13717,-0.169,-0.96,-0.103,-0.061,0.244,-0.061,174.852
135092,140743,10972,-0.17,-0.958,-0.103,-0.061,0.244,-0.061,174.856
135092,140730,13728,-0.166,-0.958,-0.105,-0.183,0.305,0.122,174.862
135109,140743,10972,-0.165,-0.958,-0.109,-0.183,0.305,0.122,174.866
135109,140704,13730,-0.168,-0.961,-0.107,-0.305,0.427,0.244,174.872
135103,140743,10972,-0.167,-0.959,-0.105,-0.305,0.427,0.244,174.876
135103,140712,13725,-0.168,-0.96,-0.108,-0.366,0.488,0.366,174.882
135106,140743,10972,-0.169,-0.96,-0.109,-0.366,0.488,0.366,174.886
135106,140723,13735,-0.169,-0.957,-0.106,-0.427,0.488,0.549,174.892
135084,140743,10972,-0.167,-0.953,-0.107,-0.427,0.488,0.549,174.896
135084,140707,13724,-0.169,-0.957,-0.104,-0.305,0.488,0.671,174.902
135084,140743,10972,-0.168,-0.956,-0.102,-0.305,0.488,0.671,174.905
135084,140700,13726,-0.167,-0.955,-0.102,-0.122,0.549,0.793,174.912
135091,140743,10972,-0.169,-0.952,-0.103,-0.122,0.549,0.793,174.915
135091,140713,13730,-0.17,-0.954,-0.107,-0.244,0.793,0.854,174.922
135111,140743,10972,-0.167,-0.954,-0.11,-0.244,0.793,0.854,174.925
135111,140729,13741,-0.17,-0.952,-0.11,-0.549,0.793,0.732,174.931
135105,140743,10972,-0.171,-0.951,-0.109,-0.549,0.793,0.732,174.935
135105,140715,13730,-0.171,-0.954,-0.107,-0.549,0.549,0.549,174.941
135095,140743,10972,-0.173,-0.956,-0.109,-0.549,0.549,0.549,174.945
135095,140697,13727,-0.176,-0.955,-0.11,-0.61,0.793,0.488,174.951
135121,140743,10972,-0.176,-0.954,-0.11,-0.61,0.793,0.488,174.955
135121,140716,13748,-0.175,-0.951,-0.108,-0.732,0.915,0.61,174.961
135083,140743,10972,-0.174,-0.953,-0.108,-0.732,0.915,0.61,174.965
135083,140705,13722,-0.176,-0.954,-0.104,-0.488,0.732,0.671,174.971
135062,140743,10972,-0.175,-0.955,-0.107,-0.488,0.732,0.671,174.975
135062,140702,13736,-0.174,-0.954,-0.106,-0.244,0.671,0.671,174.981
135075,140743,10972,-0.17,-0.955,-0.105,-0.244,0.671,0.671,174.985
135075,140676,13730,-0.171,-0.954,-0.108,-0.305,0.732,0.732,174.991
135071,140743,10972,-0.17,-0.953,-0.11,-0.305,0.732,0.732,174.995
135071,140676,13724,-0.169,-0.952,-0.11,-0.427,0.732,0.793,175.001
135080,140743,10972,-0.169,-0.952,-0.11,-0.427,0.732,0.793,175.004
135080,140684,13729,-0.171,-0.956,-0.115,-0.488,0.732,0.549,175.011
135066,140743,10972,-0.171,-0.956,-0.115,-0.488,0.732,0.549,175.014
135066,140696,13726,-0.172,-0.955,-0.111,-0.488,0.549,0.549,175.021
135071,140743,10972,-0.172,-0.955,-0.111,-0.488,0.549,0.549,175.024
135071,140696,13722,-0.169,-0.953,-0.106,-0.427,0.427,0.549,175.03
135070,140743,10972,-0.169,-0.953,-0.106,-0.427,0.427,0.549,175.034
135070,140681,13712,-0.175,-0.953,-0.108,-0.244,0.366,0.549,175.04
135079,140743,10972,-0.175,-0.953,-0.108,-0.244,0.366,0.549,175.044
135079,140706,13730,-0.175,-0.946,-0.111,0.061,0.366,0.488,175.05
135070,140743,10972,-0.175,-0.946,-0.111,0.061,0.366,0.488,175.054
135070,140687,13730,-0.176,-0.954,-0.11,0.244,0.305,0.366,175.06
135072,140743,10972,-0.176,-0.954,-0.11,0.244,0.305,0.366,175.064
135072,140684,13731,-0.176,-0.949,-0.108,0.305,0.061,0.305,175.07
135085,140743,10972,-0.176,-0.949,-0.108,0.305,0.061,0.305,175.074
135085,140675,13720,-0.173,-0.95,-0.106,0.305,0.061,0.183,175.08
135067,140743,10972,-0.173,-0.95,-0.106,0.305,0.061,0.183,175.084
135067,140664,13723,-0.177,-0.953,-0.107,0.061,0.122,0.122,175.09
135079,140743,10972,-0.177,-0.953,-0.107,0.061,0.122,0.122,175.094
135079,140677,13719,-0.174,-0.955,-0.109,-0.427,0.183,0.122,175.1
135075,140743,10972,-0.174,-0.955,-0.109,-0.427,0.183,0.122,175.103
135075,140713,13736,-0.17,-0.955,-0.106,-0.732,0.061,0.061,175.11
135075,140743,10972,-0.17,-0.955,-0.106,-0.732,0.061,0.061,175.113
135075,140722,13727,-0.17,-0.957,-0.107,-0.427,0.122,0,175.12
135072,140743,10972,-0.17,-0.957,-0.107,-0.427,0.122,0,175.123
135072,140708,13724,-0.169,-0.956,-0.11,-0.305,0.183,0.122,175.129
135086,140743,10972,-0.169,-0.956,-0.11,-0.305,0.183,0.122,175.133
135086,140688,13724,-0.167,-0.958,-0.108,-0.244,0.061,0.305,175.139
135064,140743,10972,-0.167,-0.958,-0.108,-0.244,0.061,0.305,175.143
135064,140691,13727,-0.169,-0.954,-0.107,-0.244,0.061,0.305,175.149
135102,140743,10972,-0.166,-0.953,-0.108,0,-0.061,0.366,175.153
135102,140716,13731,-0.166,-0.956,-0.103,0,-0.061,0.366,175.159
135063,140743,10972,-0.169,-0.955,-0.103,0.183,-0.183,0.427,175.163
135063,140700,13731,-0.171,-0.955,-0.105,0.183,-0.183,0.427,175.169
135100,140743,10972,-0.17,-0.955,-0.102,0.061,-0.061,0.549,175.173
135100,140732,13736,-0.171,-0.955,-0.103,0.061,-0.061,0.549,175.179
135080,140743,10972,-0.169,-0.954,-0.104,-0.305,0.061,0.488,175.183
135080,140730,13738,-0.168,-0.958,-0.105,-0.305,0.061,0.488,175.189
135089,140743,10972,-0.171,-0.953,-0.104,-0.488,0.244,0.488,175.193
135089,140713,13722,-0.17,-0.955,-0.109,-0.488,0.244,0.488,175.199
135079,140743,10972,-0.171,-0.954,-0.109,-0.793,0.427,0.549,175.202
135079,140712,13744,-0.172,-0.954,-0.109,-0.793,0.427,0.549,175.209
135063,140743,10972,-0.17,-0.956,-0.109,-0.732,0.488,0.488,175.212
135063,140707,13736,-0.17,-0.957,-0.11,-0.732,0.488,0.488,175.219
135075,140743,10972,-0.175,-0.953,-0.107,-0.366,0.549,0.488,175.222
135075,140714,13733,-0.174,-0.951,-0.109,-0.366,0.549,0.488,175.228
135085,140743,10972,-0.171,-0.954,-0.106,-0.183,0.732,0.427,175.232
135085,140700,13745,-0.17,-0.952,-0.106,-0.183,0.732,0.427,175.238
135073,140743,10972,-0.171,-0.951,-0.107,-0.244,0.671,0.549,175.242
135073,140700,13740,-0.17,-0.952,-0.105,-0.244,0.671,0.549,175.248
135066,140743,10972,-0.173,-0.952,-0.107,-0.305,0.61,0.488,175.252
135066,140695,13707,-0.173,-0.954,-0.108,-0.305,0.61,0.488,175.258
135081,140743,10972,-0.173,-0.954,-0.109,-0.427,0.671,0.427,175.262
135081,140661,13752,-0.171,-0.953,-0.111,-0.427,0.671,0.427,175.268
135069,140743,10972,-0.172,-0.952,-0.112,-0.488,0.671,0.366,175.272
135069,140670,13734,-0.171,-0.951,-0.111,-0.488,0.671,0.366,175.278
135080,140743,10972,-0.175,-0.951,-0.114,-0.366,0.488,0.305,175.282
135080,140702,13741,-0.173,-0.953,-0.112,-0.366,0.488,0.305,175.288
135065,140743,10972,-0.176,-0.952,-0.114,-0.183,0.427,0.244,175.292
135065,140676,13734,-0.174,-0.95,-0.111,-0.183,0.427,0.244,175.298
135072,140743,10972,-0.174,-0.953,-0.11,0,0.366,0.183,175.301
135072,140674,13735,-0.174,-0.951,-0.112,0,0.366,0.183,175.308
135061,140743,10972,-0.171,-0.953,-0.111,0.183,0.305,0.183,175.311
135061,140694,13720,-0.173,-0.956,-0.111,0.183,0.305,0.183,175.318
135080,140743,10972,-0.174,-0.954,-0.109,0.183,0.244,0.183,175.321
135080,140672,13736,-0.174,-0.954,-0.105,0.183,0.244,0.183,175.327
135047,140743,10972,-0.173,-0.957,-0.105,0.305,0.244,0.244,175.331
135047,140689,13731,-0.172,-0.953,-0.105,0.305,0.244,0.244,175.337
135052,140743,10972,-0.171,-0.953,-0.105,0.305,0.122,0.305,175.341
135052,140664,13741,-0.173,-0.954,-0.105,0.305,0.122,0.305,175.347
135055,140743,10972,-0.17,-0.955,-0.101,0.122,0.183,0.366,175.351
135055,140669,13723,-0.172,-0.953,-0.103,0.122,0.183,0.366,175.357
135059,140743,10972,-0.173,-0.955,-0.107,-0.183,0.488,0.488,175.361
135059,140665,13712,-0.172,-0.954,-0.11,-0.183,0.488,0.488,175.367
135036,140743,10972,-0.172,-0.953,-0.109,-0.244,0.427,0.366,175.371
135036,140642,13713,-0.171,-0.952,-0.105,-0.244,0.427,0.366,175.377
135026,140743,10972,-0.17,-0.953,-0.108,-0.183,0.549,0.305,175.381
135026,140661,13725,-0.169,-0.95,-0.105,-0.183,0.549,0.305,175.387
135022,140743,10972,-0.174,-0.954,-0.108,-0.244,0.671,0.305,175.391
135022,140641,13706,-0.175,-0.956,-0.109,-0.244,0.671,0.305,175.397
135018,140743,10972,-0.171,-0.953,-0.107,-0.183,0.732,0.183,175.4
135018,140666,13705,-0.17,-0.949,-0.104,-0.183,0.732,0.183,175.407
135020,140743,10972,-0.17,-0.953,-0.107,-0.061,0.671,0.061,175.41
135020,140654,13712,-0.171,-0.953,-0.108,-0.061,0.671,0.061,175.417
135005,140743,10972,-0.171,-0.953,-0.111,-0.183,0.671,0,175.42
135005,140663,13714,-0.171,-0.95,-0.106,-0.183,0.671,0,175.426
135029,140743,10972,-0.171,-0.955,-0.105,-0.122,0.671,0,175.43
135029,140675,13707,-0.171,-0.953,-0.106,-0.122,0.671,0,175.436
134988,140743,10972,-0.174,-0.951,-0.108,-0.061,0.61,0.061,175.44
134988,140673,13722,-0.172,-0.955,-0.106,-0.061,0.61,0.061,175.446
135015,140743,10972,-0.167,-0.956,-0.105,-0.122,0.366,0.122,175.45
135015,140667,13719,-0.168,-0.954,-0.106,-0.122,0.366,0.122,175.456
135020,140743,10972,-0.171,-0.954,-0.107,-0.122,0.305,0.183,175.46
135020,140640,13714,-0.172,-0.958,-0.107,-0.122,0.305,0.183,175.466
135010,140743,10972,-0.169,-0.956,-0.106,-0.061,0.305,0.305,175.47
135010,140646,13710,-0.171,-0.956,-0.11,-0.061,0.305,0.305,175.476
134999,140743,10972,-0.173,-0.957,-0.108,0,0.244,0.427,175.48
134999,140644,13689,-0.172,-0.956,-0.105,0,0.244,0.427,175.486
135025,140743,10972,-0.172,-0.951,-0.106,0.122,0.244,0.488,175.49
135025,140657,13705,-0.172,-0.954,-0.108,0.122,0.244,0.488,175.496
135025,140743,10972,-0.171,-0.957,-0.105,0,0.244,0.61,175.5
135025,140633,13712,-0.172,-0.951,-0.105,0,0.244,0.61,175.506
135014,140743,10972,-0.17,-0.954,-0.105,-0.183,0.305,0.61,175.509
135014,140637,13706,-0.168,-0.95,-0.104,-0.183,0.305,0.61,175.516
135007,140743,10972,-0.171,-0.953,-0.109,-0.488,0.488,0.549,175.519
135007,140669,13708,-0.172,-0.951,-0.103,-0.488,0.488,0.549,175.525
134997,140743,10972,-0.171,-0.949,-0.108,-0.549,0.488,0.549,175.529
134997,140649,13716,-0.17,-0.95,-0.106,-0.549,0.488,0.549,175.535
135026,140743,10972,-0.17,-0.952,-0.107,-0.488,0.488,0.427,175.539
135026,140640,13709,-0.172,-0.951,-0.105,-0.488,0.488,0.427,175.545
135022,140743,10972,-0.171,-0.951,-0.105,-0.427,0.549,0.366,175.549
135022,140646,13698,-0.17,-0.955,-0.109,-0.427,0.549,0.366,175.555
135013,140743,10972,-0.172,-0.955,-0.109,-0.427,0.671,0.366,175.559
135013,140652,13723,-0.172,-0.952,-0.108,-0.427,0.671,0.366,175.565
135023,140743,10972,-0.169,-0.951,-0.106,-0.244,0.61,0.305,175.569
135023,140659,13713,-0.173,-0.953,-0.104,-0.244,0.61,0.305,175.575
135019,140743,10972,-0.172,-0.952,-0.106,-0.061,0.549,0.244,175.579
135019,140656,13715,-0.17,-0.955,-0.105,-0.061,0.549,0.244,175.585
135018,140743,10972,-0.174,-0.953,-0.107,-0.244,0.671,0.305,175.589
135018,140659,13720,-0.175,-0.954,-0.111,-0.244,0.671,0.305,175.595
135013,140743,10972,-0.175,-0.954,-0.111,-0.244,0.671,0.305,175.599
135013,140648,13708,-0.174,-0.955,-0.114,-0.549,0.61,0.122,175.605
135020,140743,10972,-0.174,-0.955,-0.114,-0.549,0.61,0.122,175.608
135020,140659,13718,-0.173,-0.956,-0.11,-0.488,0.305,0,175.615
135013,140743,10972,-0.173,-0.956,-0.11,-0.488,0.305,0,175.618
135013,140666,13703,-0.172,-0.954,-0.11,-0.183,0.122,-0.122,175.625
135012,140743,10972,-0.172,-0.954,-0.11,-0.183,0.122,-0.122,175.628
135012,140674,13715,-0.174,-0.955,-0.113,-0.122,0.061,-0.122,175.634
135018,140743,10972,-0.174,-0.955,-0.113,-0.122,0.061,-0.122,175.638
135018,140663,13718,-0.171,-0.957,-0.109,0.122,-0.061,-0.122,175.644
135020,140743,10972,-0.171,-0.957,-0.109,0.122,-0.061,-0.122,175.648
135020,140665,13710,-0.169,-0.958,-0.108,0.366,-0.244,-0.061,175.654
135027,140743,10972,-0.169,-0.958,-0.108,0.366,-0.244,-0.061,175.658
135027,140674,13708,-0.167,-0.959,-0.107,0.427,-0.183,0.061,175.664
135027,140743,10972,-0.167,-0.959,-0.107,0.427,-0.183,0.061,175.668
135027,140664,13703,-0.164,-0.958,-0.109,0.244,-0.183,0.305,175.674
135031,140743,10972,-0.164,-0.958,-0.109,0.244,-0.183,0.305,175.678
135031,140660,13712,-0.165,-0.958,-0.112,0.061,0.061,0.366,175.684
135031,140743,10972,-0.165,-0.958,-0.112,0.061,0.061,0.366,175.688
135031,140663,13699,-0.166,-0.956,-0.106,0.244,0.366,0.427,175.694
135026,140743,10972,-0.166,-0.956,-0.106,0.244,0.366,0.427,175.698
135026,140651,13706,-0.172,-0.951,-0.106,0.305,0.488,0.488,175.704
135008,140743,10972,-0.172,-0.951,-0.106,0.305,0.488,0.488,175.707
135008,140686,13705,-0.171,-0.949,-0.101,0.244,0.61,0.427,175.714
135025,140743,10972,-0.171,-0.949,-0.101,0.244,0.61,0.427,175.717
135025,140648,13724,-0.173,-0.947,-0.103,0.183,0.671,0.244,175.724
135020,140743,10972,-0.173,-0.947,-0.103,0.183,0.671,0.244,175.727
135020,140659,13721,-0.176,-0.951,-0.107,0.183,0.854,0.122,175.733
135033,140743,10972,-0.176,-0.951,-0.107,0.183,0.854,0.122,175.737
135033,140656,13708,-0.176,-0.951,-0.105,0.122,0.854,-0.061,175.743
135041,140743,10972,-0.173,-0.952,-0.102,0.122,0.854,-0.061,175.747
135041,140650,13712,-0.175,-0.951,-0.104,-0.061,0.854,-0.122,175.753
135009,140743,10972,-0.175,-0.952,-0.109,-0.061,0.854,-0.122,175.757
135009,140658,13721,-0.17,-0.953,-0.109,-0.366,0.732,-0.122,175.763
135022,140743,10972,-0.172,-0.955,-0.106,-0.366,0.732,-0.122,175.767
135022,140645,13721,-0.174,-0.958,-0.11,-0.671,0.671,-0.061,175.773
135032,140743,10972,-0.171,-0.956,-0.111,-0.671,0.671,-0.061,175.777
135032,140645,13727,-0.168,-0.957,-0.114,-0.732,0.61,0.122,175.783
135025,140743,10972,-0.169,-0.959,-0.112,-0.732,0.61,0.122,175.787
135025,140651,13713,-0.168,-0.958,-0.116,-0.549,0.305,0.183,175.793
135046,140743,10972,-0.167,-0.954,-0.116,-0.549,0.305,0.183,175.797
135046,140654,13717,-0.167,-0.96,-0.112,-0.244,0,0.305,175.803
135031,140743,10972,-0.167,-0.958,-0.11,-0.244,0,0.305,175.806
135031,140681,13723,-0.167,-0.958,-0.108,0.244,-0.244,0.549,175.813
135040,140743,10972,-0.166,-0.958,-0.109,0.244,-0.244,0.549,175.816
135040,140694,13726,-0.165,-0.955,-0.108,0.549,-0.305,0.61,175.823
135020,140743,10972,-0.167,-0.952,-0.109,0.549,-0.305,0.61,175.826
135020,140666,13731,-0.17,-0.95,-0.107,0.488,-0.305,0.488,175.832
135043,140743,10972,-0.17,-0.952,-0.104,0.488,-0.305,0.488,175.836
135043,140646,13720,-0.169,-0.949,-0.105,0.305,-0.366,0.549,175.842
135034,140743,10972,-0.168,-0.952,-0.106,0.305,-0.366,0.549,175.846
135034,140653,13708,-0.17,-0.951,-0.109,0.244,-0.305,0.427,175.852
135026,140743,10972,-0.172,-0.954,-0.109,0.244,-0.305,0.427,175.856
135026,140673,13720,-0.171,-0.955,-0.104,0.122,-0.183,0.183,175.862
135016,140743,10972,-0.169,-0.95,-0.107,0.122,-0.183,0.183,175.866
135016,140658,13718,-0.171,-0.953,-0.109,0.183,-0.122,0.122,175.872
135020,140743,10972,-0.172,-0.951,-0.107,0.183,-0.122,0.122,175.876
135020,140669,13715,-0.17,-0.951,-0.106,0.488,-0.122,0.122,175.882
135037,140743,10972,-0.17,-0.948,-0.102,0.488,-0.122,0.122,175.886
135037,140665,13741,-0.171,-0.952,-0.1,0.549,-0.122,0,175.892
135013,140743,10972,-0.172,-0.952,-0.102,0.549,-0.122,0,175.896
135013,140671,13713,-0.173,-0.95,-0.1,0.366,-0.061,0,175.902
135032,140743,10972,-0.172,-0.952,-0.098,0.366,-0.061,0,175.905
135032,140678,13717,-0.172,-0.951,-0.099,0.061,0.061,0,175.912
135044,140743,10972,-0.168,-0.953,-0.103,0.061,0.061,0,175.915
135044,140675,13702,-0.171,-0.956,-0.106,-0.549,0.366,0,175.922
135036,140743,10972,-0.17,-0.957,-0.106,-0.549,0.366,0,175.925
135036,140666,13715,-0.171,-0.959,-0.104,-0.732,0.366,0,175.931
135043,140743,10972,-0.17,-0.958,-0.107,-0.732,0.366,0,175.935
135043,140671,13731,-0.168,-0.958,-0.102,-0.488,0.244,0.183,175.941
135038,140743,10972,-0.171,-0.957,-0.101,-0.488,0.244,0.183,175.945
135038,140670,13717,-0.17,-0.955,-0.103,-0.305,0.305,0.427,175.951
135035,140743,10972,-0.168,-0.952,-0.102,-0.305,0.305,0.427,175.955
135035,140667,13721,-0.171,-0.955,-0.103,-0.366,0.488,0.488,175.961
135025,140743,10972,-0.171,-0.955,-0.101,-0.366,0.488,0.488,175.965
135025,140674,13720,-0.168,-0.953,-0.102,-0.671,0.671,0.61,175.971
135015,140743,10972,-0.17,-0.95,-0.105,-0.671,0.671,0.61,175.975
135015,140674,13712,-0.172,-0.951,-0.105,-0.976,0.854,0.549,175.981
135022,140743,10972,-0.172,-0.952,-0.108,-0.976,0.854,0.549,175.985
135022,140662,13720,-0.172,-0.95,-0.108,-1.28,1.037,0.366,175.991
135023,140743,10972,-0.169,-0.951,-0.105,-1.28,1.037,0.366,175.995
135023,140687,13727,-0.172,-0.956,-0.106,-1.28,1.159,0.305,176.001
134995,140743,10972,-0.172,-0.954,-0.107,-1.28,1.159,0.305,176.005
134995,140679,13723,-0.171,-0.952,-0.108,-1.098,1.22,0.305,176.011
135001,140743,10972,-0.173,-0.953,-0.104,-1.098,1.22,0.305,176.014
135001,140653,13703,-0.171,-0.952,-0.109,-0.915,1.28,0.244,176.021
134992,140743,10972,-0.17,-0.95,-0.106,-0.915,1.28,0.244,176.024
134992,140641,13719,-0.167,-0.955,-0.105,-0.976,1.341,0.305,176.03
135006,140743,10972,-0.169,-0.955,-0.109,-0.976,1.341,0.305,176.034
135006,140614,13730,-0.169,-0.958,-0.107,-0.915,1.28,0.366,176.04
134991,140743,10972,-0.169,-0.958,-0.107,-0.915,1.28,0.366,176.044
134991,140648,13716,-0.17,-0.958,-0.112,-1.098,1.28,0.427,176.05
134987,140743,10972,-0.171,-0.953,-0.111,-1.098,1.28,0.427,176.054
134987,140657,13731,-0.171,-0.953,-0.11,-1.159,1.159,0.427,176.06
134994,140743,10972,-0.171,-0.953,-0.115,-1.159,1.159,0.427,176.064
134994,140639,13727,-0.17,-0.953,-0.113,-1.098,1.098,0.427,176.07
134993,140743,10972,-0.168,-0.952,-0.109,-1.098,1.098,0.427,176.074
134993,140621,13702,-0.168,-0.954,-0.11,-1.037,0.915,0.427,176.08
134973,140743,10972,-0.167,-0.955,-0.114,-1.037,0.915,0.427,176.084
134973,140618,13702,-0.17,-0.957,-0.117,-0.976,0.854,0.305,176.09
134985,140743,10972,-0.17,-0.956,-0.116,-0.976,0.854,0.305,176.094
134985,140624,13706,-0.171,-0.957,-0.113,-0.732,0.793,0.305,176.1
134995,140743,10972,-0.17,-0.952,-0.114,-0.732,0.793,0.305,176.103
134995,140620,13688,-0.169,-0.954,-0.115,-0.366,0.61,0.305,176.11
134969,140743,10972,-0.169,-0.953,-0.112,-0.366,0.61,0.305,176.113
134969,140640,13700,-0.172,-0.952,-0.109,-0.122,0.305,0.183,176.12
134980,140743,10972,-0.17,-0.952,-0.109,-0.122,0.305,0.183,176.123
134980,140641,13700,-0.169,-0.954,-0.108,0.122,0.122,0.122,176.129
134981,140743,10972,-0.17,-0.952,-0.109,0.122,0.122,0.122,176.133
134981,140629,13703,-0.169,-0.953,-0.109,0.122,0,0.183,176.139
134980,140743,10972,-0.17,-0.956,-0.108,0.122,0,0.183,176.143
134980,140636,13708,-0.173,-0.956,-0.106,0.061,-0.183,0.183,176.149
134978,140743,10972,-0.171,-0.957,-0.103,0.061,-0.183,0.183,176.153
134978,140636,13703,-0.171,-0.954,-0.106,0.061,-0.366,0.366,176.159
134956,140743,10972,-0.173,-0.953,-0.105,0.061,-0.366,0.366,176.163
134956,140642,13695,-0.171,-0.953,-0.106,-0.061,-0.061,0.366,176.169
134967,140743,10972,-0.17,-0.955,-0.105,-0.061,-0.061,0.366,176.173
134967,140651,13692,-0.166,-0.956,-0.108,-0.244,0.061,0.244,176.179
134983,140743,10972,-0.169,-0.954,-0.109,-0.244,0.061,0.244,176.183
134983,140641,13695,-0.17,-0.956,-0.107,-0.427,0.244,0.061,176.189
134993,140743,10972,-0.17,-0.956,-0.107,-0.427,0.244,0.061,176.193
134993,140615,13689,-0.166,-0.954,-0.107,-0.305,0.427,0.183,176.199
134984,140743,10972,-0.166,-0.954,-0.107,-0.305,0.427,0.183,176.202
134984,140616,13704,-0.168,-0.953,-0.106,-0.122,0.488,0.305,176.209
135004,140743,10972,-0.168,-0.953,-0.106,-0.122,0.488,0.305,176.212
135004,140635,13706,-0.169,-0.952,-0.103,0.061,0.488,0.244,176.219
134988,140743,10972,-0.169,-0.952,-0.103,0.061,0.488,0.244,176.222
134988,140653,13716,-0.171,-0.951,-0.102,-0.061,0.61,0.244,176.228
134999,140743,10972,-0.171,-0.951,-0.102,-0.061,0.61,0.244,176.232
134999,140629,13715,-0.171,-0.954,-0.105,-0.366,0.793,0.244,176.238
135004,140743,10972,-0.171,-0.954,-0.105,-0.366,0.793,0.244,176.242
135004,140643,13709,-0.171,-0.953,-0.108,-0.732,0.854,0.122,176.248
135020,140743,10972,-0.171,-0.953,-0.108,-0.732,0.854,0.122,176.252
135020,140630,13696,-0.17,-0.954,-0.106,-0.732,0.854,0.183,176.258
135009,140743,10972,-0.17,-0.954,-0.106,-0.732,0.854,0.183,176.262
135009,140648,13716,-0.166,-0.956,-0.108,-0.854,0.976,0.183,176.268
134996,140743,10972,-0.166,-0.956,-0.108,-0.854,0.976,0.183,176.272
134996,140639,13711,-0.168,-0.957,-0.112,-0.915,1.159,0.122,176.278
135006,140743,10972,-0.168,-0.957,-0.112,-0.915,1.159,0.122,176.282
135006,140635,13713,-0.169,-0.954,-0.117,-0.854,1.037,0.244,176.288
135007,140743,10972,-0.169,-0.954,-0.117,-0.854,1.037,0.244,176.292
135007,140647,13714,-0.166,-0.955,-0.11,-0.488,0.793,0.305,176.298
135007,140743,10972,-0.166,-0.955,-0.11,-0.488,0.793,0.305,176.301
135007,140652,13703,-0.173,-0.951,-0.115,-0.244,0.854,0.183,176.308
135011,140743,10972,-0.173,-0.951,-0.115,-0.244,0.854,0.183,176.311
135011,140655,13721,-0.17,-0.948,-0.11,-0.244,0.61,0.244,176.318
135009,140743,10972,-0.17,-0.948,-0.11,-0.244,0.61,0.244,176.321
135009,140647,13713,-0.173,-0.952,-0.113,0,0.244,0.122,176.327
135013,140743,10972,-0.173,-0.952,-0.113,0,0.244,0.122,176.331
135013,140642,13703,-0.169,-0.951,-0.111,0,0.244,0.122,176.337
135020,140743,10972,-0.169,-0.955,-0.108,0.183,0.183,0.122,176.341
135020,140666,13712,-0.166,-0.957,-0.108,0.183,0.183,0.122,176.347
135036,140743,10972,-0.166,-0.956,-0.111,0.244,0.122,0.305,176.351
135036,140655,13708,-0.168,-0.955,-0.113,0.244,0.122,0.305,176.357
135007,140743,10972,-0.166,-0.959,-0.114,0.183,0.122,0.244,176.361
135007,140647,13708,-0.164,-0.959,-0.114,0.183,0.122,0.244,176.367
135025,140743,10972,-0.166,-0.958,-0.11,0.183,0,0.244,176.371
135025,140647,13718,-0.167,-0.955,-0.11,0.183,0,0.244,176.377
135018,140743,10972,-0.169,-0.959,-0.108,0.122,0,0.366,176.381
135018,140653,13723,-0.169,-0.956,-0.109,0.122,0,0.366,176.387
135009,140743,10972,-0.168,-0.95,-0.106,0.061,0,0.427,176.391
135009,140658,13717,-0.171,-0.951,-0.106,0.061,0,0.427,176.397
135002,140743,10972,-0.174,-0.945,-0.106,-0.122,0.183,0.427,176.4
135002,140637,13728,-0.175,-0.946,-0.109,-0.122,0.183,0.427,176.407
135014,140743,10972,-0.175,-0.946,-0.109,-0.122,0.366,0.244,176.41
135014,140652,13713,-0.176,-0.949,-0.106,-0.122,0.366,0.244,176.417
135022,140743,10972,-0.176,-0.949,-0.108,-0.183,0.488,0.122,176.42
135022,140668,13717,-0.176,-0.952,-0.109,-0.183,0.488,0.122,176.426
135028,140743,10972,-0.174,-0.952,-0.106,-0.122,0.61,-0.061,176.43
135028,140651,13708,-0.172,-0.951,-0.106,-0.122,0.61,-0.061,176.436
135015,140743,10972,-0.172,-0.953,-0.107,-0.122,0.488,-0.061,176.44
135015,140664,13714,-0.173,-0.952,-0.104,-0.122,0.488,-0.061,176.446
135049,140743,10972,-0.168,-0.953,-0.1,-0.183,0.244,0.122,176.45
135049,140662,13735,-0.167,-0.953,-0.1,-0.183,0.244,0.122,176.456
135014,140743,10972,-0.168,-0.953,-0.104,-0.549,0.244,0.122,176.46
135014,140685,13714,-0.168,-0.954,-0.107,-0.549,0.244,0.122,176.466
135046,140743,10972,-0.167,-0.955,-0.109,-0.976,0.488,0.183,176.47
135046,140666,13731,-0.167,-0.957,-0.109,-0.976,0.488,0.183,176.476
135055,140743,10972,-0.162,-0.957,-0.115,-1.159,0.488,0.244,176.48
135055,140675,13727,-0.163,-0.956,-0.114,-1.159,0.488,0.244,176.486
135049,140743,10972,-0.166,-0.956,-0.113,-1.037,0.427,0.244,176.49
135049,140674,13706,-0.165,-0.959,-0.111,-1.037,0.427,0.244,176.496
135052,140743,10972,-0.162,-0.958,-0.113,-0.671,0.244,0.244,176.5
135052,140688,13731,-0.163,-0.958,-0.112,-0.671,0.244,0.244,176.506
135051,140743,10972,-0.165,-0.956,-0.106,-0.122,0.244,0.427,176.509
135051,140700,13720,-0.164,-0.958,-0.109,-0.122,0.244,0.427,176.516
135051,140743,10972,-0.166,-0.955,-0.107,0.244,0.183,0.549,176.519
135051,140695,13731,-0.165,-0.953,-0.102,0.244,0.183,0.549,176.525
135046,140743,10972,-0.166,-0.955,-0.103,0.366,0.122,0.61,176.529
135046,140676,13727,-0.164,-0.955,-0.104,0.366,0.122,0.61,176.535
135045,140743,10972,-0.167,-0.951,-0.104,0.244,0.244,0.61,176.539
135045,140697,13736,-0.172,-0.952,-0.107,0.244,0.244,0.61,176.545
135045,140743,10972,-0.171,-0.955,-0.107,-0.244,0.366,0.61,176.549
135045,140695,13726,-0.172,-0.954,-0.105,-0.244,0.366,0.61,176.555
135051,140743,10972,-0.171,-0.949,-0.109,-0.793,0.488,0.488,176.559
135051,140698,13756,-0.172,-0.953,-0.107,-0.793,0.488,0.488,176.565
135054,140743,10972,-0.17,-0.957,-0.108,-0.793,0.549,0.305,176.569
135054,140678,13728,-0.171,-0.954,-0.107,-0.793,0.549,0.305,176.575
135031,140743,10972,-0.171,-0.952,-0.109,-0.732,0.671,0.244,176.579
135031,140691,13730,-0.169,-0.953,-0.11,-0.732,0.671,0.244,176.585
135045,140743,10972,-0.167,-0.954,-0.109,-0.366,0.732,0.244,176.589
135045,140675,13733,-0.168,-0.954,-0.109,-0.366,0.732,0.244,176.595
135048,140743,10972,-0.169,-0.954,-0.109,0,0.793,0.183,176.599
135048,140681,13738,-0.168,-0.953,-0.107,0,0.793,0.183,176.605
135055,140743,10972,-0.168,-0.95,-0.108,0,0.732,0.244,176.608
135055,140681,13743,-0.169,-0.956,-0.107,0,0.732,0.244,176.615
135054,140743,10972,-0.172,-0.957,-0.108,-0.122,0.732,0.244,176.618
135054,140682,13731,-0.169,-0.953,-0.11,-0.122,0.732,0.244,176.624
135055,140743,10972,-0.171,-0.954,-0.11,-0.183,0.671,0.305,176.628
135055,140678,13726,-0.171,-0.955,-0.109,-0.183,0.671,0.305,176.634
135058,140743,10972,-0.171,-0.954,-0.111,-0.427,0.488,0.366,176.638
135058,140679,13745,-0.172,-0.957,-0.11,-0.427,0.488,0.366,176.644
135068,140743,10972,-0.172,-0.952,-0.109,-0.488,0.427,0.427,176.648
135068,140681,13734,-0.173,-0.955,-0.11,-0.488,0.427,0.427,176.654
135058,140743,10972,-0.17,-0.957,-0.111,-0.366,0.427,0.427,176.658
135058,140659,13750,-0.171,-0.957,-0.11,-0.366,0.427,0.427,176.664
135059,140743,10972,-0.173,-0.957,-0.114,-0.244,0.305,0.488,176.668
135059,140688,13734,-0.17,-0.956,-0.111,-0.244,0.305,0.488,176.674
135048,140743,10972,-0.168,-0.954,-0.109,-0.183,0.366,0.671,176.678
135048,140681,13743,-0.173,-0.954,-0.111,-0.183,0.366,0.671,176.684
135049,140743,10972,-0.173,-0.953,-0.11,-0.122,0.305,0.61,176.688
135049,140691,13731,-0.17,-0.951,-0.108,-0.122,0.305,0.61,176.694
135038,140743,10972,-0.169,-0.953,-0.111,-0.305,0.244,0.488,176.698
135038,140669,13742,-0.167,-0.952,-0.109,-0.305,0.244,0.488,176.704
135040,140743,10972,-0.167,-0.953,-0.11,-0.366,0.244,0.549,176.707
135040,140690,13745,-0.17,-0.955,-0.108,-0.366,0.244,0.549,176.714
135048,140743,10972,-0.169,-0.95,-0.11,-0.427,0.366,0.488,176.717
135048,140688,13748,-0.168,-0.951,-0.109,-0.427,0.366,0.488,176.723
135041,140743,10972,-0.169,-0.954,-0.111,-0.366,0.427,0.366,176.727
135041,140683,13752,-0.17,-0.955,-0.112,-0.366,0.427,0.366,176.733
135032,140743,10972,-0.169,-0.956,-0.112,-0.427,0.427,0.244,176.737
135032,140638,13731,-0.168,-0.956,-0.113,-0.427,0.427,0.244,176.743
135053,140743,10972,-0.171,-0.954,-0.113,-0.305,0.366,0.183,176.747
135053,140646,13740,-0.168,-0.957,-0.109,-0.305,0.366,0.183,176.753
135032,140743,10972,-0.17,-0.956,-0.109,-0.061,0.305,0.183,176.757
135032,140643,13728,-0.168,-0.955,-0.11,-0.061,0.305,0.183,176.763
135036,140743,10972,-0.168,-0.953,-0.109,0.183,0.305,0.305,176.767
135036,140647,13725,-0.168,-0.953,-0.109,0.183,0.305,0.305,176.773
135039,140743,10972,-0.166,-0.957,-0.111,0.183,0.183,0.305,176.777
135039,140663,13718,-0.168,-0.956,-0.109,0.183,0.183,0.305,176.783
135020,140743,10972,-0.168,-0.956,-0.109,0.183,0.183,0.305,176.787
135020,140657,13728,-0.168,-0.954,-0.111,0.061,0.183,0.305,176.793
135043,140743,10972,-0.168,-0.954,-0.111,0.061,0.183,0.305,176.797
135043,140665,13722,-0.169,-0.953,-0.109,-0.061,0.244,0.366,176.803
135029,140743,10972,-0.169,-0.953,-0.109,-0.061,0.244,0.366,176.806
135029,140663,13729,-0.169,-0.954,-0.108,0,0.244,0.488,176.813
135012,140743,10972,-0.169,-0.954,-0.108,0,0.244,0.488,176.816
135012,140681,13736,-0.169,-0.951,-0.107,0.061,0.183,0.488,176.823
135021,140743,10972,-0.169,-0.951,-0.107,0.061,0.183,0.488,176.826
135021,140670,13711,-0.172,-0.953,-0.107,-0.122,0.183,0.427,176.832
135037,140743,10972,-0.172,-0.953,-0.107,-0.122,0.183,0.427,176.836
135037,140668,13732,-0.17,-0.952,-0.104,-0.061,0.427,0.427,176.842
135048,140743,10972,-0.17,-0.952,-0.104,-0.061,0.427,0.427,176.846
135048,140669,13726,-0.169,-0.95,-0.107,-0.061,0.427,0.427,176.852
135045,140743,10972,-0.169,-0.95,-0.107,-0.061,0.427,0.427,176.856
135045,140667,13722,-0.171,-0.954,-0.107,0.122,0.427,0.427,176.862
135035,140743,10972,-0.171,-0.954,-0.107,0.122,0.427,0.427,176.866
135035,140646,13728,-0.172,-0.952,-0.108,0.122,0.549,0.366,176.872
135043,140743,10972,-0.172,-0.952,-0.108,0.122,0.549,0.366,176.876
135043,140678,13718,-0.167,-0.953,-0.107,0,0.671,0.366,176.882
135035,140743,10972,-0.167,-0.953,-0.107,0,0.671,0.366,176.886
135035,140686,13732,-0.171,-0.954,-0.108,-0.244,0.732,0.305,176.892
135047,140743,10972,-0.171,-0.954,-0.108,-0.244,0.732,0.305,176.896
135047,140663,13736,-0.167,-0.958,-0.11,-0.244,0.61,0.305,176.902
135051,140743,10972,-0.167,-0.958,-0.11,-0.244,0.61,0.305,176.905
135051,140648,13746,-0.168,-0.954,-0.108,-0.244,0.61,0.366,176.912
135036,140743,10972,-0.168,-0.954,-0.108,-0.244,0.61,0.366,176.915
135036,140655,13730,-0.168,-0.954,-0.11,-0.305,0.671,0.488,176.922
135068,140743,10972,-0.168,-0.954,-0.11,-0.305,0.671,0.488,176.925
135068,140682,13741,-0.168,-0.955,-0.109,-0.305,0.549,0.549,176.931
135070,140743,10972,-0.166,-0.958,-0.112,-0.305,0.549,0.549,176.935
135070,140672,13747,-0.166,-0.958,-0.113,-0.305,0.549,0.61,176.941
135066,140743,10972,-0.17,-0.955,-0.115,-0.305,0.549,0.61,176.945
135066,140704,13738,-0.17,-0.954,-0.114,-0.366,0.61,0.488,176.951
135066,140743,10972,-0.172,-0.952,-0.113,-0.366,0.61,0.488,176.955
135066,140720,13750,-0.169,-0.951,-0.114,-0.305,0.427,0.427,176.961
135044,140743,10972,-0.167,-0.95,-0.113,-0.305,0.427,0.427,176.965
135044,140714,13741,-0.172,-0.95,-0.112,-0.061,0.305,0.244,176.971
135076,140743,10972,-0.174,-0.951,-0.113,-0.061,0.305,0.244,176.975
135076,140672,13749,-0.172,-0.952,-0.115,0,0.183,0.122,176.981
135056,140743,10972,-0.169,-0.953,-0.112,0,0.183,0.122,176.985
135056,140699,13746,-0.169,-0.956,-0.108,0.427,-0.122,0,176.991
135077,140743,10972,-0.168,-0.957,-0.104,0.427,-0.122,0,176.995
135077,140693,13749,-0.17,-0.958,-0.108,0.793,-0.244,0.122,177.001
135072,140743,10972,-0.168,-0.958,-0.106,0.793,-0.244,0.122,177.004
135072,140693,13725,-0.169,-0.957,-0.103,0.854,-0.244,0.366,177.011
135071,140743,10972,-0.167,-0.959,-0.104,0.854,-0.244,0.366,177.014
135071,140693,13744,-0.164,-0.954,-0.11,0.427,-0.122,0.549,177.021
135081,140743,10972,-0.166,-0.954,-0.11,0.427,-0.122,0.549,177.024
135081,140692,13748,-0.165,-0.958,-0.109,-0.122,-0.061,0.549,177.03
135085,140743,10972,-0.168,-0.96,-0.109,-0.122,-0.061,0.549,177.034
135085,140687,13736,-0.166,-0.956,-0.11,-0.427,0.122,0.549,177.04
135064,140743,10972,-0.165,-0.955,-0.115,-0.427,0.122,0.549,177.044
135064,140701,13746,-0.168,-0.956,-0.113,-0.305,0.427,0.549,177.05
135072,140743,10972,-0.169,-0.952,-0.11,-0.305,0.427,0.549,177.054
135072,140690,13760,-0.172,-0.95,-0.103,-0.061,0.488,0.61,177.06
135088,140743,10972,-0.174,-0.95,-0.104,-0.061,0.488,0.61,177.064
135088,140681,13750,-0.173,-0.95,-0.106,0.366,0.427,0.488,177.07
135072,140743,10972,-0.175,-0.947,-0.1,0.366,0.427,0.488,177.074
135072,140667,13749,-0.177,-0.948,-0.105,0.61,0.488,0.305,177.08
135072,140743,10972,-0.174,-0.949,-0.106,0.61,0.488,0.305,177.084
135072,140682,13753,-0.172,-0.949,-0.108,0.427,0.488,0.244,177.09
135081,140743,10972,-0.173,-0.95,-0.111,0.427,0.488,0.244,177.094
135081,140694,13754,-0.172,-0.953,-0.107,0.427,0.366,0.183,177.1
135071,140743,10972,-0.17,-0.952,-0.104,0.427,0.366,0.183,177.103
135071,140704,13753,-0.172,-0.95,-0.108,0.122,0.366,0.183,177.11
135087,140743,10972,-0.171,-0.953,-0.111,0.122,0.366,0.183,177.113
135087,140689,13753,-0.17,-0.956,-0.109,-0.366,0.366,0.061,177.12
135085,140743,10972,-0.167,-0.959,-0.108,-0.366,0.366,0.061,177.123
135085,140701,13756,-0.164,-0.963,-0.11,-0.549,0.183,0.122,177.129
135073,140743,10972,-0.167,-0.963,-0.114,-0.549,0.183,0.122,177.133
135073,140702,13746,-0.167,-0.96,-0.112,-0.488,0.183,0.427,177.139
135093,140743,10972,-0.167,-0.956,-0.11,-0.488,0.183,0.427,177.143
135093,140716,13742,-0.167,-0.958,-0.111,-0.122,0.061,0.549,177.149
135100,140743,10972,-0.167,-0.956,-0.11,-0.122,0.061,0.549,177.153
135100,140726,13749,-0.169,-0.955,-0.111,0.305,0.061,0.549,177.159
135099,140743,10972,-0.168,-0.954,-0.108,0.305,0.061,0.549,177.163
135099,140697,13756,-0.168,-0.953,-0.103,0.671,-0.061,0.549,177.169
135113,140743,10972,-0.167,-0.95,-0.104,0.671,-0.061,0.549,177.173
135113,140719,13760,-0.168,-0.956,-0.105,0.549,0,0.549,177.179
135114,140743,10972,-0.169,-0.953,-0.105,0.549,0,0.549,177.183
135114,140746,13757,-0.168,-0.952,-0.103,0.244,0.122,0.427,177.189
135107,140743,10972,-0.166,-0.952,-0.1,0.244,0.122,0.427,177.193
135107,140749,13759,-0.167,-0.954,-0.102,-0.061,0.183,0.427,177.199
135105,140743,10972,-0.167,-0.953,-0.106,-0.061,0.183,0.427,177.202
135105,140732,13755,-0.172,-0.955,-0.109,-0.061,0.183,0.427,177.209
135111,140743,10972,-0.17,-0.956,-0.11,-0.061,0.183,0.427,177.212
135111,140721,13765,-0.171,-0.952,-0.109,0.061,0.061,0.427,177.219
135100,140743,10972,-0.168,-0.953,-0.109,0.061,0.061,0.427,177.222
135100,140719,13747,-0.169,-0.954,-0.106,0.122,0.183,0.427,177.228
135098,140743,10972,-0.174,-0.953,-0.105,0.122,0.183,0.427,177.232
135098,140710,13768,-0.174,-0.953,-0.103,0.061,0.305,0.366,177.238
135116,140743,10972,-0.172,-0.95,-0.103,0.061,0.305,0.366,177.242
135116,140699,13778,-0.169,-0.954,-0.104,-0.183,0.427,0.427,177.248
135112,140743,10972,-0.168,-0.953,-0.105,-0.183,0.427,0.427,177.252
135112,140717,13769,-0.167,-0.955,-0.102,-0.366,0.61,0.488,177.258
135138,140743,10972,-0.167,-0.954,-0.104,-0.366,0.61,0.488,177.262
135138,140727,13775,-0.169,-0.954,-0.107,-0.488,0.61,0.366,177.268
135115,140743,10972,-0.17,-0.956,-0.107,-0.488,0.61,0.366,177.272
135115,140731,13780,-0.168,-0.95,-0.107,-0.488,0.671,0.488,177.278
135113,140743,10972,-0.17,-0.951,-0.11,-0.488,0.671,0.488,177.282
135113,140747,13778,-0.17,-0.956,-0.112,-0.549,0.671,0.549,177.288
135115,140743,10972,-0.171,-0.956,-0.109,-0.549,0.671,0.549,177.292
135115,140710,13777,-0.171,-0.953,-0.108,-0.427,0.61,0.427,177.298
135137,140743,10972,-0.17,-0.956,-0.108,-0.427,0.61,0.427,177.301
135137,140736,13775,-0.172,-0.953,-0.109,-0.122,0.549,0.488,177.308
135117,140743,10972,-0.172,-0.954,-0.11,-0.122,0.549,0.488,177.311
135117,140728,13767,-0.171,-0.954,-0.111,-0.061,0.549,0.427,177.318
135122,140743,10972,-0.171,-0.953,-0.108,-0.061,0.549,0.427,177.321
135122,140741,13778,-0.17,-0.955,-0.107,-0.061,0.549,0.427,177.327
135110,140743,10972,-0.17,-0.956,-0.106,-0.061,0.549,0.427,177.331
135110,140734,13773,-0.171,-0.958,-0.108,0,0.488,0.427,177.337
135122,140743,10972,-0.17,-0.957,-0.111,0,0.488,0.427,177.341
135122,140718,13774,-0.169,-0.953,-0.104,-0.183,0.549,0.549,177.347
135106,140743,10972,-0.17,-0.956,-0.11,-0.183,0.549,0.549,177.351
135106,140710,13772,-0.173,-0.956,-0.111,-0.244,0.366,0.61,177.357
135129,140743,10972,-0.172,-0.954,-0.11,-0.244,0.366,0.61,177.361
135129,140732,13760,-0.171,-0.956,-0.11,-0.122,0.427,0.732,177.367
135134,140743,10972,-0.171,-0.955,-0.106,-0.122,0.427,0.732,177.371
135134,140740,13777,-0.169,-0.953,-0.109,0,0.366,0.732,177.377
135124,140743,10972,-0.169,-0.953,-0.109,0,0.366,0.732,177.381
135124,140726,13760,-0.171,-0.954,-0.104,-0.122,0.244,0.61,177.387
135102,140743,10972,-0.171,-0.954,-0.104,-0.122,0.244,0.61,177.391
135102,140740,13777,-0.17,-0.953,-0.109,-0.183,0.244,0.488,177.397
135103,140743,10972,-0.17,-0.953,-0.109,-0.183,0.244,0.488,177.4
135103,140702,13757,-0.171,-0.954,-0.108,-0.122,0.244,0.488,177.407
135102,140743,10972,-0.171,-0.954,-0.108,-0.122,0.244,0.488,177.41
135102,140709,13770,-0.17,-0.954,-0.106,-0.061,0.305,0.366,177.417
135102,140743,10972,-0.17,-0.954,-0.106,-0.061,0.305,0.366,177.42
135102,140708,13773,-0.17,-0.954,-0.104,-0.061,0.305,0.427,177.426
135093,140743,10972,-0.17,-0.954,-0.104,-0.061,0.305,0.427,177.43
135093,140696,13746,-0.168,-0.955,-0.105,-0.122,0.366,0.366,177.436
135086,140743,10972,-0.168,-0.955,-0.105,-0.122,0.366,0.366,177.44
135086,140714,13763,-0.171,-0.957,-0.109,-0.061,0.427,0.244,177.446
135087,140743,10972,-0.171,-0.957,-0.109,-0.061,0.427,0.244,177.45
135087,140715,13764,-0.17,-0.954,-0.11,0,0.427,0.305,177.456
135057,140743,10972,-0.17,-0.954,-0.11,0,0.427,0.305,177.46
135057,140694,13758,-0.17,-0.952,-0.104,0,0.427,0.305,177.466
135072,140743,10972,-0.17,-0.952,-0.104,0,0.427,0.305,177.47
135072,140722,13763,-0.171,-0.955,-0.108,-0.122,0.366,0.244,177.476
135089,140743,10972,-0.171,-0.955,-0.108,-0.122,0.366,0.244,177.48
135089,140717,13746,-0.172,-0.954,-0.106,-0.183,0.366,0.305,177.486
135075,140743,10972,-0.172,-0.954,-0.106,-0.183,0.366,0.305,177.49
135075,140731,13748,-0.169,-0.955,-0.106,-0.061,0.366,0.305,177.496
135087,140743,10972,-0.169,-0.955,-0.106,-0.061,0.366,0.305,177.5
135087,140702,13754,-0.17,-0.958,-0.109,0.061,0.305,0.244,177.506
135092,140743,10972,-0.17,-0.958,-0.109,0.061,0.305,0.244,177.509
135092,140715,13749,-0.172,-0.956,-0.105,0.122,0.244,0.305,177.516
135101,140743,10972,-0.172,-0.956,-0.105,0.122,0.244,0.305,177.519
135101,140715,13756,-0.171,-0.954,-0.105,0.183,0.244,0.366,177.525
135085,140743,10972,-0.171,-0.954,-0.105,0.183,0.244,0.366,177.529
135085,140709,13761,-0.171,-0.953,-0.108,0.183,0.244,0.366,177.535
135101,140743,10972,-0.172,-0.95,-0.108,0,0.244,0.366,177.539
135101,140722,13759,-0.172,-0.955,-0.107,0,0.244,0.366,177.545
135106,140743,10972,-0.171,-0.954,-0.105,0,0.244,0.427,177.549
135106,140702,13769,-0.169,-0.954,-0.107,0,0.244,0.427,177.555
135103,140743,10972,-0.17,-0.954,-0.109,-0.122,0.244,0.366,177.559
135103,140707,13773,-0.168,-0.952,-0.107,-0.122,0.244,0.366,177.565
135107,140743,10972,-0.167,-0.953,-0.106,0,0.244,0.427,177.569
135107,140721,13762,-0.169,-0.955,-0.106,0,0.244,0.427,177.575
135111,140743,10972,-0.17,-0.957,-0.107,0,0.305,0.427,177.579
135111,140716,13764,-0.167,-0.955,-0.109,0,0.305,0.427,177.585
135098,140743,10972,-0.169,-0.954,-0.104,0.061,0.244,0.366,177.589
135098,140718,13770,-0.17,-0.954,-0.105,0.061,0.244,0.366,177.595
135108,140743,10972,-0.169,-0.956,-0.105,0.122,0.366,0.366,177.599
135108,140707,13757,-0.169,-0.957,-0.104,0.122,0.366,0.366,177.605
135112,140743,10972,-0.17,-0.955,-0.106,0.183,0.488,0.305,177.608
135112,140727,13759,-0.169,-0.952,-0.105,0.183,0.488,0.305,177.615
135110,140743,10972,-0.17,-0.953,-0.104,0,0.61,0.366,177.618
135110,140720,13767,-0.17,-0.953,-0.104,0,0.61,0.366,177.625
135114,140743,10972,-0.171,-0.951,-0.109,-0.183,0.732,0.366,177.628
135114,140731,13771,-0.172,-0.95,-0.11,-0.183,0.732,0.366,177.634
135123,140743,10972,-0.17,-0.956,-0.112,-0.366,0.671,0.244,177.638
135123,140724,13775,-0.172,-0.956,-0.114,-0.366,0.671,0.244,177.644
135108,140743,10972,-0.169,-0.956,-0.111,-0.244,0.427,0.244,177.648
135108,140713,13784,-0.169,-0.957,-0.107,-0.244,0.427,0.244,177.654
135118,140743,10972,-0.17,-0.957,-0.105,0.183,0.366,0.244,177.658
135118,140730,13759,-0.172,-0.956,-0.109,0.183,0.366,0.244,177.664
135122,140743,10972,-0.174,-0.954,-0.107,0.122,0.366,0.183,177.668
135122,140714,13760,-0.173,-0.95,-0.107,0.122,0.366,0.183,177.674
135121,140743,10972,-0.175,-0.951,-0.109,0.122,0.061,0.305,177.678
135121,140719,13778,-0.17,-0.955,-0.104,0.122,0.061,0.305,177.684
135115,140743,10972,-0.168,-0.955,-0.105,0.366,-0.061,0.366,177.688
135115,140733,13779,-0.167,-0.955,-0.105,0.366,-0.061,0.366,177.694
135117,140743,10972,-0.169,-0.954,-0.107,0.122,0.183,0.366,177.698
135117,140720,13769,-0.166,-0.955,-0.11,0.122,0.183,0.366,177.704
135116,140743,10972,-0.166,-0.958,-0.11,-0.061,0.183,0.366,177.707
135116,140714,13769,-0.163,-0.956,-0.112,-0.061,0.183,0.366,177.714
135132,140743,10972,-0.166,-0.955,-0.111,-0.122,0.366,0.366,177.717
135132,140722,13773,-0.166,-0.959,-0.11,-0.122,0.366,0.366,177.723
135115,140743,10972,-0.168,-0.959,-0.111,0.061,0.366,0.305,177.727
135115,140725,13777,-0.168,-0.955,-0.104,0.061,0.366,0.305,177.733
135126,140743,10972,-0.169,-0.954,-0.102,0.427,0.427,0.305,177.737
135126,140724,13778,-0.169,-0.954,-0.103,0.427,0.427,0.305,177.743
135130,140743,10972,-0.171,-0.951,-0.104,0.549,0.488,0.305,177.747
135130,140735,13773,-0.174,-0.949,-0.105,0.549,0.488,0.305,177.753
135101,140743,10972,-0.175,-0.949,-0.104,0.549,0.427,0.366,177.757
135101,140747,13775,-0.176,-0.95,-0.101,0.549,0.427,0.366,177.763
135118,140743,10972,-0.175,-0.95,-0.101,0.427,0.549,0.366,177.767
135118,140742,13774,-0.172,-0.95,-0.104,0.427,0.549,0.366,177.773
135103,140743,10972,-0.173,-0.95,-0.103,0.122,0.488,0.305,177.777
135103,140723,13761,-0.173,-0.949,-0.107,0.122,0.488,0.305,177.783
135094,140743,10972,-0.173,-0.952,-0.108,-0.366,0.671,0.305,177.787
135094,140730,13773,-0.173,-0.952,-0.104,-0.366,0.671,0.305,177.793
135110,140743,10972,-0.172,-0.953,-0.107,-0.793,0.488,0.244,177.797
135110,140718,13776,-0.169,-0.953,-0.108,-0.793,0.488,0.244,177.803
135118,140743,10972,-0.171,-0.955,-0.107,-0.854,0.549,0.183,177.806
135118,140740,13759,-0.171,-0.957,-0.107,-0.854,0.549,0.183,177.813
135109,140743,10972,-0.168,-0.956,-0.109,-0.732,0.549,0.244,177.816
135109,140729,13779,-0.165,-0.958,-0.11,-0.732,0.549,0.244,177.823
135102,140743,10972,-0.166,-0.955,-0.108,-0.305,0.427,0.305,177.826
135102,140710,13765,-0.165,-0.954,-0.109,-0.305,0.427,0.305,177.832
135114,140743,10972,-0.168,-0.957,-0.108,0.122,0.305,0.427,177.836
135114,140744,13777,-0.166,-0.955,-0.106,0.122,0.305,0.427,177.842
135106,140743,10972,-0.166,-0.953,-0.103,0.305,0.244,0.61,177.846
135106,140726,13788,-0.168,-0.954,-0.106,0.305,0.244,0.61,177.852
135108,140743,10972,-0.17,-0.953,-0.103,0.427,0.122,0.61,177.856
135108,140738,13783,-0.168,-0.954,-0.104,0.427,0.122,0.61,177.862
135099,140743,10972,-0.166,-0.95,-0.105,0.061,0,0.671,177.866
135099,140720,13769,-0.168,-0.951,-0.103,0.061,0,0.671,177.872
135086,140743,10972,-0.17,-0.955,-0.106,-0.244,-0.061,0.61,177.876
135086,140750,13785,-0.17,-0.955,-0.107,-0.244,-0.061,0.61,177.882
135118,140743,10972,-0.17,-0.957,-0.108,-0.305,0,0.488,177.886
135118,140751,13787,-0.17,-0.954,-0.109,-0.305,0,0.488,177.892
135103,140743,10972,-0.17,-0.953,-0.106,-0.305,0.061,0.488,177.896
135103,140729,13786,-0.169,-0.955,-0.106,-0.305,0.061,0.488,177.902
135105,140743,10972,-0.17,-0.953,-0.106,-0.061,0.122,0.427,177.905
135105,140728,13768,-0.171,-0.955,-0.101,-0.061,0.122,0.427,177.912
135093,140743,10972,-0.173,-0.952,-0.106,0.061,0.244,0.305,177.915
135093,140721,13777,-0.172,-0.953,-0.108,0.061,0.244,0.305,177.922
135093,140743,10972,-0.172,-0.952,-0.104,0.122,0.183,0.366,177.925
135093,140718,13778,-0.172,-0.949,-0.102,0.122,0.183,0.366,177.931
135106,140743,10972,-0.17,-0.953,-0.101,0.183,0.244,0.305,177.935
135106,140713,13781,-0.171,-0.955,-0.101,0.183,0.244,0.305,177.941
135108,140743,10972,-0.173,-0.953,-0.107,0,0.427,0.366,177.945
135108,140713,13773,-0.172,-0.956,-0.103,0,0.427,0.366,177.951
135112,140743,10972,-0.17,-0.956,-0.102,-0.305,0.427,0.427,177.955
135112,140709,13780,-0.166,-0.956,-0.106,-0.305,0.427,0.427,177.961
135117,140743,10972,-0.17,-0.952,-0.106,-0.671,0.488,0.427,177.965
135117,140723,13784,-0.169,-0.953,-0.109,-0.671,0.488,0.427,177.971
135115,140743,10972,-0.171,-0.957,-0.11,-0.732,0.549,0.427,177.975
135115,140710,13766,-0.168,-0.959,-0.108,-0.732,0.549,0.427,177.981
135109,140743,10972,-0.168,-0.959,-0.108,-0.732,0.549,0.427,177.985
135109,140715,13777,-0.169,-0.956,-0.104,-0.549,0.488,0.488,177.991
135127,140743,10972,-0.169,-0.956,-0.104,-0.549,0.488,0.488,177.995
135127,140708,13790,-0.172,-0.95,-0.109,-0.244,0.305,0.549,178.001
135111,140743,10972,-0.172,-0.95,-0.109,-0.244,0.305,0.549,178.004
135111,140714,13784,-0.174,-0.953,-0.102,-0.061,0.427,0.61,178.011
135091,140743,10972,-0.174,-0.953,-0.102,-0.061,0.427,0.61,178.014
135091,140701,13773,-0.173,-0.953,-0.106,-0.183,0.427,0.61,178.021
135106,140743,10972,-0.173,-0.953,-0.106,-0.183,0.427,0.61,178.024
135106,140708,13772,-0.171,-0.952,-0.101,-0.305,0.488,0.549,178.03
135104,140743,10972,-0.171,-0.952,-0.101,-0.305,0.488,0.549,178.034
135104,140704,13789,-0.172,-0.952,-0.104,-0.488,0.488,0.549,178.04
135090,140743,10972,-0.172,-0.952,-0.104,-0.488,0.488,0.549,178.044
135090,140713,13791,-0.173,-0.954,-0.105,-0.671,0.549,0.549,178.05
135071,140743,10972,-0.173,-0.954,-0.105,-0.671,0.549,0.549,178.054
135071,140722,13789,-0.168,-0.956,-0.107,-0.915,0.671,0.427,178.06
135083,140743,10972,-0.168,-0.956,-0.107,-0.915,0.671,0.427,178.064
135083,140703,13783,-0.17,-0.959,-0.109,-0.915,0.732,0.366,178.07
135070,140743,10972,-0.17,-0.959,-0.109,-0.915,0.732,0.366,178.074
135070,140688,13766,-0.169,-0.958,-0.109,-0.671,0.732,0.427,178.08
135061,140743,10972,-0.169,-0.958,-0.109,-0.671,0.732,0.427,178.084
135061,140696,13778,-0.167,-0.956,-0.108,-0.488,0.793,0.488,178.09
135059,140743,10972,-0.167,-0.956,-0.108,-0.488,0.793,0.488,178.094
135059,140698,13776,-0.169,-0.955,-0.11,-0.061,0.671,0.549,178.1
135061,140743,10972,-0.169,-0.955,-0.11,-0.061,0.671,0.549,178.103
135061,140707,13770,-0.169,-0.953,-0.108,-0.061,0.61,0.488,178.11
135036,140743,10972,-0.169,-0.953,-0.108,-0.061,0.61,0.488,178.113
135036,140703,13778,-0.17,-0.955,-0.109,-0.122,0.488,0.488,178.12
135025,140743,10972,-0.17,-0.955,-0.109,-0.122,0.488,0.488,178.123
135025,140722,13769,-0.17,-0.955,-0.111,-0.244,0.549,0.427,178.129
135047,140743,10972,-0.169,-0.955,-0.106,-0.244,0.549,0.427,178.133
135047,140681,13750,-0.169,-0.955,-0.109,-0.305,0.427,0.427,178.139
135029,140743,10972,-0.172,-0.952,-0.106,-0.305,0.427,0.427,178.143
135029,140689,13754,-0.169,-0.955,-0.106,-0.183,0.366,0.427,178.149
135062,140743,10972,-0.17,-0.952,-0.107,-0.183,0.366,0.427,178.153
135062,140668,13774,-0.172,-0.954,-0.105,-0.183,0.366,0.427,178.159
135029,140743,10972,-0.168,-0.953,-0.105,-0.183,0.366,0.427,178.163
135029,140678,13756,-0.171,-0.953,-0.105,-0.305,0.427,0.488,178.169
135046,140743,10972,-0.17,-0.955,-0.104,-0.305,0.427,0.488,178.173
135046,140656,13762,-0.17,-0.953,-0.105,-0.183,0.427,0.427,178.179
135025,140743,10972,-0.172,-0.953,-0.106,-0.183,0.427,0.427,178.183
135025,140677,13762,-0.173,-0.952,-0.107,-0.122,0.305,0.427,178.189
135036,140743,10972,-0.172,-0.952,-0.109,-0.122,0.305,0.427,178.193
135036,140673,13756,-0.171,-0.95,-0.107,0,0.244,0.427,178.199
135022,140743,10972,-0.172,-0.953,-0.104,0,0.244,0.427,178.202
135022,140678,13766,-0.172,-0.953,-0.103,-0.244,0.305,0.366,178.209
135028,140743,10972,-0.171,-0.952,-0.104,-0.244,0.305,0.366,178.212
135028,140686,13764,-0.173,-0.951,-0.104,-0.488,0.305,0.366,178.219
135012,140743,10972,-0.174,-0.955,-0.104,-0.488,0.305,0.366,178.222
135012,140688,13767,-0.17,-0.956,-0.105,-0.488,0.305,0.488,178.228
135029,140743,10972,-0.17,-0.955,-0.109,-0.488,0.305,0.488,178.232
135029,140676,13771,-0.17,-0.954,-0.105,-0.488,0.427,0.488,178.238
135035,140743,10972,-0.172,-0.953,-0.109,-0.488,0.427,0.488,178.242
135035,140678,13771,-0.172,-0.955,-0.108,-0.427,0.427,0.427,178.248
135024,140743,10972,-0.172,-0.952,-0.107,-0.427,0.427,0.427,178.252
135024,140687,13773,-0.171,-0.955,-0.109,-0.305,0.366,0.488,178.258
135035,140743,10972,-0.171,-0.958,-0.107,-0.305,0.366,0.488,178.262
135035,140678,13748,-0.171,-0.955,-0.107,-0.122,0.427,0.427,178.268
135043,140743,10972,-0.169,-0.955,-0.109,-0.122,0.427,0.427,178.272
135043,140680,13767,-0.171,-0.951,-0.107,-0.183,0.366,0.427,178.278
135049,140743,10972,-0.17,-0.951,-0.104,-0.183,0.366,0.427,178.282
135049,140666,13761,-0.172,-0.956,-0.108,-0.122,0.427,0.366,178.288
135036,140743,10972,-0.169,-0.953,-0.107,-0.122,0.427,0.366,178.292
135036,140684,13755,-0.171,-0.952,-0.105,-0.183,0.305,0.244,178.298
135057,140743,10972,-0.169,-0.953,-0.109,-0.183,0.305,0.244,178.302
135057,140683,13751,-0.171,-0.955,-0.105,-0.366,0.366,0.305,178.308
135029,140743,10972,-0.17,-0.952,-0.106,-0.366,0.366,0.305,178.311
135029,140698,13758,-0.17,-0.953,-0.104,-0.183,0.366,0.305,178.318
135030,140743,10972,-0.17,-0.954,-0.103,-0.183,0.366,0.305,178.321
135030,140687,13761,-0.17,-0.951,-0.103,-0.305,0.488,0.244,178.327
135034,140743,10972,-0.172,-0.955,-0.111,-0.305,0.488,0.244,178.331
135034,140670,13755,-0.172,-0.954,-0.108,-0.61,0.671,0.244,178.337
135046,140743,10972,-0.172,-0.955,-0.112,-0.61,0.671,0.244,178.341
135046,140681,13761,-0.169,-0.958,-0.113,-0.488,0.488,0.183,178.347
135020,140743,10972,-0.169,-0.955,-0.113,-0.488,0.488,0.183,178.351
135020,140669,13760,-0.168,-0.955,-0.107,-0.061,0.366,0.061,178.357
135037,140743,10972,-0.171,-0.956,-0.108,-0.061,0.366,0.061,178.361
135037,140686,13752,-0.173,-0.954,-0.106,0.061,0.366,0.122,178.367
135030,140743,10972,-0.173,-0.955,-0.107,0.061,0.366,0.122,178.371
135030,140672,13755,-0.171,-0.953,-0.104,0.244,0.122,0.244,178.377
135039,140743,10972,-0.172,-0.957,-0.102,0.244,0.122,0.244,178.381
135039,140655,13757,-0.174,-0.954,-0.1,0.305,-0.061,0.427,178.387
135034,140743,10972,-0.169,-0.957,-0.102,0.305,-0.061,0.427,178.391
135034,140663,13739,-0.168,-0.955,-0.103,0.122,0,0.549,178.397
135028,140743,10972,-0.169,-0.957,-0.104,0.122,0,0.549,178.401
135028,140652,13750,-0.168,-0.957,-0.107,-0.244,0.183,0.671,178.407
135040,140743,10972,-0.169,-0.954,-0.109,-0.244,0.183,0.671,178.41
135040,140662,13745,-0.169,-0.957,-0.112,-0.549,0.427,0.61,178.417
135032,140743,10972,-0.167,-0.957,-0.111,-0.549,0.427,0.61,178.42
135032,140684,13745,-0.167,-0.958,-0.11,-0.549,0.61,0.488,178.427
135032,140743,10972,-0.168,-0.956,-0.114,-0.549,0.61,0.488,178.43
135032,140698,13756,-0.169,-0.954,-0.109,-0.244,0.61,0.427,178.436
135028,140743,10972,-0.172,-0.952,-0.108,-0.244,0.61,0.427,178.44
135028,140678,13760,-0.172,-0.954,-0.107,0.244,0.61,0.366,178.446
135026,140743,10972,-0.172,-0.951,-0.108,0.244,0.61,0.366,178.45
135026,140671,13764,-0.175,-0.95,-0.104,0.488,0.61,0.244,178.456
135018,140743,10972,-0.174,-0.952,-0.101,0.488,0.61,0.244,178.46
135018,140667,13752,-0.175,-0.949,-0.105,0.61,0.671,0.183,178.466
135025,140743,10972,-0.177,-0.948,-0.105,0.61,0.671,0.183,178.47
135025,140655,13754,-0.178,-0.948,-0.103,0.488,0.61,0.183,178.476
135021,140743,10972,-0.178,-0.949,-0.106,0.488,0.61,0.183,178.48
135021,140669,13747,-0.178,-0.951,-0.108,0.061,0.61,0.061,178.486
135035,140743,10972,-0.174,-0.952,-0.106,0.061,0.61,0.061,178.49
135035,140666,13759,-0.172,-0.953,-0.107,-0.305,0.549,0,178.496
135043,140743,10972,-0.172,-0.955,-0.108,-0.305,0.549,0,178.5
135043,140676,13744,-0.174,-0.956,-0.108,-0.549,0.305,0.061,178.506
135035,140743,10972,-0.17,-0.957,-0.111,-0.549,0.305,0.061,178.509
135035,140683,13752,-0.17,-0.958,-0.108,-0.732,0.122,0.122,178.516
135050,140743,10972,-0.169,-0.957,-0.113,-0.732,0.122,0.122,178.519
135050,140675,13763,-0.168,-0.957,-0.111,-0.305,0,0.122,178.526
135040,140743,10972,-0.168,-0.959,-0.109,-0.305,0,0.122,178.529
135040,140666,13749,-0.17,-0.958,-0.107,0.183,-0.122,0.244,178.535
135049,140743,10972,-0.168,-0.955,-0.109,0.183,-0.122,0.244,178.539
135049,140682,13749,-0.166,-0.954,-0.108,0.488,-0.244,0.427,178.545
135057,140743,10972,-0.166,-0.956,-0.106,0.488,-0.244,0.427,178.549
135057,140677,13748,-0.168,-0.953,-0.106,0.732,-0.305,0.427,178.555
135057,140743,10972,-0.169,-0.953,-0.104,0.732,-0.305,0.427,178.559
135057,140677,13757,-0.171,-0.957,-0.1,0.549,-0.122,0.427,178.565
135034,140743,10972,-0.168,-0.954,-0.101,0.549,-0.122,0.427,178.569
135034,140669,13755,-0.17,-0.952,-0.101,0.122,0.183,0.427,178.575
135041,140743,10972,-0.17,-0.952,-0.101,0.122,0.183,0.427,178.579
135041,140681,13759,-0.172,-0.955,-0.104,-0.183,0.427,0.366,178.585
135025,140743,10972,-0.172,-0.955,-0.104,-0.183,0.427,0.366,178.589
135025,140680,13759,-0.17,-0.953,-0.104,-0.305,0.366,0.305,178.595
135023,140743,10972,-0.17,-0.953,-0.104,-0.305,0.366,0.305,178.599
135023,140668,13775,-0.17,-0.956,-0.104,-0.244,0.366,0.244,178.605
135031,140743,10972,-0.17,-0.956,-0.104,-0.244,0.366,0.244,178.608
135031,140701,13765,-0.171,-0.955,-0.104,-0.183,0.549,0.244,178.615
135028,140743,10972,-0.171,-0.955,-0.104,-0.183,0.549,0.244,178.618
135028,140685,13756,-0.171,-0.952,-0.105,-0.122,0.549,0.183,178.625
135021,140743,10972,-0.171,-0.952,-0.105,-0.122,0.549,0.183,178.628
135021,140680,13754,-0.171,-0.954,-0.106,-0.122,0.549,0.122,178.634
135028,140743,10972,-0.171,-0.954,-0.106,-0.122,0.549,0.122,178.638
135028,140682,13751,-0.17,-0.954,-0.105,-0.427,0.61,0.183,178.644
135009,140743,10972,-0.17,-0.954,-0.105,-0.427,0.61,0.183,178.648
135009,140687,13753,-0.168,-0.953,-0.108,-0.793,0.549,0.244,178.654
135036,140743,10972,-0.168,-0.953,-0.108,-0.793,0.549,0.244,178.658
135036,140648,13763,-0.168,-0.957,-0.109,-1.037,0.549,0.305,178.664
135036,140743,10972,-0.168,-0.957,-0.109,-1.037,0.549,0.305,178.668
135036,140657,13763,-0.171,-0.96,-0.114,-0.732,0.549,0.305,178.674
135019,140743,10972,-0.171,-0.96,-0.114,-0.732,0.549,0.305,178.678
135019,140682,13759,-0.173,-0.958,-0.108,-0.122,0.366,0.305,178.684
135016,140743,10972,-0.173,-0.958,-0.108,-0.122,0.366,0.305,178.688
135016,140671,13763,-0.171,-0.958,-0.107,0.244,0.183,0.305,178.694
135026,140743,10972,-0.171,-0.958,-0.107,0.244,0.183,0.305,178.698
135026,140672,13737,-0.172,-0.952,-0.104,0.488,0.122,0.244,178.704
135023,140743,10972,-0.172,-0.952,-0.104,0.488,0.122,0.244,178.707
135023,140682,13776,-0.174,-0.949,-0.101,0.305,0.183,0.305,178.714
135008,140743,10972,-0.174,-0.949,-0.101,0.305,0.183,0.305,178.717
